0.000000000000000000e+00,1.241806918245538327e+03,-4.965120729219123064e+02
0.000000000000000000e+00,-8.251642876586345210e+00,-6.397378227420269923e+02
0.000000000000000000e+00,1.376395488541433679e+03,-7.998770911445478760e+01
0.000000000000000000e+00,7.538543923045527890e+02,-3.869159726929651697e+02
0.000000000000000000e+00,-7.450146770035742065e+02,-1.531735684676473284e+03
0.000000000000000000e+00,8.735495431649540023e+02,-3.245067268054266606e+03
0.000000000000000000e+00,1.137331184684966502e+03,-2.933480609034343615e+03
0.000000000000000000e+00,3.708679514946535960e+02,-2.769547938156511577e+02
0.000000000000000000e+00,1.147515893516713049e+03,1.128204236185540879e+02
0.000000000000000000e+00,2.016472864983732052e+03,-8.022778400156980751e+02
0.000000000000000000e+00,-4.399261200244435486e+02,-6.490081017685346296e+02
0.000000000000000000e+00,-1.411318179256143424e+02,-1.229667587623803684e+03
0.000000000000000000e+00,3.110426901500792383e+02,-6.883802307703469978e+02
0.000000000000000000e+00,1.119713240255820892e+03,-4.580598116392682755e+02
0.000000000000000000e+00,-4.599536535361346523e+02,-1.448460257361462482e+03
0.000000000000000000e+00,2.994392875186775882e+02,-1.036391405953297408e+03
0.000000000000000000e+00,6.614505830914908984e+02,6.968846051835537310e+02
0.000000000000000000e+00,6.389671585525368300e+02,-3.098091652411507766e+03
0.000000000000000000e+00,1.262422401753595750e+03,-9.590246970035021832e+02
0.000000000000000000e+00,5.444811502204902354e+02,1.782585366069730298e+03
0.000000000000000000e+00,3.358551095738500294e+02,-9.694981439468995177e+02
0.000000000000000000e+00,1.514812747686027478e+03,-3.280396856214718809e+03
0.000000000000000000e+00,4.599143461130048536e+02,-1.332075758207929766e+03
0.000000000000000000e+00,5.502857910373186314e+02,-1.573599679860493836e+02
0.000000000000000000e+00,5.257085540617117658e+02,-1.022879762759498135e+03
0.000000000000000000e+00,2.685598369971381771e+02,-1.819890554081150185e+03
0.000000000000000000e+00,2.269203593734224569e+02,-8.395647212803783077e+02
0.000000000000000000e+00,1.486549617284958686e+03,8.013939908621325685e+02
0.000000000000000000e+00,3.348101459233537867e+02,-8.501407119366468805e+02
0.000000000000000000e+00,7.877271849341810821e+02,-9.565831019706399729e+02
0.000000000000000000e+00,1.111930791627804069e+02,-1.522921878769289151e+03
0.000000000000000000e+00,-1.593212612012786167e+02,-1.363248284464222024e+03
0.000000000000000000e+00,7.925217519116813492e+01,1.101696307138216525e+03
0.000000000000000000e+00,1.148884855226986019e+03,-4.656066806652112291e+02
0.000000000000000000e+00,-1.933486643122799933e+02,-3.320865238267778068e+02
0.000000000000000000e+00,1.234352924352640684e+03,-3.326777895992236154e+03
0.000000000000000000e+00,1.740505691378383517e+02,-3.471847570162356078e+02
0.000000000000000000e+00,-1.197073267607491289e+03,-3.172285816530814486e+02
0.000000000000000000e+00,1.072061890379861552e+03,-3.939186120588320591e+03
0.000000000000000000e+00,1.378469560265852351e+03,-4.001758004155192793e+03
0.000000000000000000e+00,9.027457727470558666e+02,1.281532310082811819e+03
0.000000000000000000e+00,5.804226098040467150e+02,-3.320942702738004300e+03
0.000000000000000000e+00,5.330572291745638722e+02,-9.484071504815365188e+02
0.000000000000000000e+00,1.106622995762933897e+03,-1.026945157951521878e+03
0.000000000000000000e+00,3.711035642624977982e+01,-1.213544911794262589e+03
0.000000000000000000e+00,6.424541248783497167e+02,-6.639955521524943833e+02
0.000000000000000000e+00,-2.270518457857230032e+02,9.982503658047789941e+01
0.000000000000000000e+00,4.527011208159677835e+02,-1.212975316153472249e+03
0.000000000000000000e+00,4.377541638688743433e+02,-1.120781425807376536e+03
0.000000000000000000e+00,4.050488872367642443e+02,-1.282355957885794624e+03
0.000000000000000000e+00,9.642624815644306864e+02,-2.636182993182357222e+03
0.000000000000000000e+00,-1.688055939210639167e+02,-8.519911883125196255e+02
0.000000000000000000e+00,-8.699690289231995166e+02,-6.928646783143940979e+01
0.000000000000000000e+00,-3.311348911353679796e+02,-4.588796673301428086e+01
0.000000000000000000e+00,1.440954136061713598e+03,-4.538744110946816363e+03
0.000000000000000000e+00,1.985410064912484359e+03,-1.884998252796370252e+03
0.000000000000000000e+00,-2.223633684023108117e+02,-1.848375847321779020e+03
0.000000000000000000e+00,1.993846375189100399e+02,-9.708209932031514882e+02
0.000000000000000000e+00,2.969267608511339063e+02,-8.798976919742291329e+02
0.000000000000000000e+00,5.723438416963415420e+02,-1.867694589993880072e+03
0.000000000000000000e+00,1.437257216220590635e+03,-3.954795052382301492e+03
0.000000000000000000e+00,7.732208500534900395e+02,-2.587490123582427714e+03
0.000000000000000000e+00,1.996197550516403226e+03,-3.299230154122801196e+03
0.000000000000000000e+00,9.075925210369423439e+02,-1.389774128022725677e+02
0.000000000000000000e+00,1.384244556798165036e+02,1.326632141699245039e+03
0.000000000000000000e+00,-1.241146118784623980e+02,-7.071722096583787334e+02
0.000000000000000000e+00,2.453478771971970787e+02,-1.309473339571545011e+03
0.000000000000000000e+00,8.407407820166432089e+01,-1.524233014423078430e+03
0.000000000000000000e+00,3.013723676625804728e+02,-1.125796269497835738e+03
0.000000000000000000e+00,6.015730803271367222e+02,-3.050838631978177773e+02
0.000000000000000000e+00,3.446220302313944330e+02,-7.192074298546297086e+02
0.000000000000000000e+00,3.295867667941615764e+02,-5.942789993076920609e+02
0.000000000000000000e+00,6.550011369004633366e+01,-8.625738562951753465e+02
0.000000000000000000e+00,7.482076703529576207e+02,-6.525576867753562738e+02
0.000000000000000000e+00,-2.500917365447890006e+02,-1.064426382190334152e+03
0.000000000000000000e+00,4.072932126688557446e+02,-1.050376964895267974e+03
0.000000000000000000e+00,1.151636133470205095e+03,-1.279409109224904114e+03
0.000000000000000000e+00,3.581490868675481920e+02,-1.342590369047901504e+03
0.000000000000000000e+00,7.652852417653599559e+02,-6.503298996622545474e+02
0.000000000000000000e+00,1.182581414763993052e+03,-2.792897190157995055e+02
0.000000000000000000e+00,-7.602040691428065884e+02,6.386599822215398490e+02
0.000000000000000000e+00,1.552212187079557907e+03,-2.924624061567883018e+03
0.000000000000000000e+00,3.955880450685230585e+02,-5.808660123970155382e+02
0.000000000000000000e+00,6.296705113380986063e+01,-1.017443197355680127e+03
0.000000000000000000e+00,3.968991542653469651e+02,-8.905083678982645097e+02
0.000000000000000000e+00,-2.435605938956337013e+02,-1.147503465796110731e+03
0.000000000000000000e+00,4.581838209279470675e+02,-5.468934323409482658e+02
0.000000000000000000e+00,3.735085341267396757e+02,-7.209605725204880855e+00
0.000000000000000000e+00,-1.187734195493714680e+02,-1.352655886205993738e+03
0.000000000000000000e+00,5.839841621891299610e+02,-4.512159529761448766e+02
0.000000000000000000e+00,-7.206656935518294631e+02,-9.661871290545174134e+02
0.000000000000000000e+00,1.056554335757334684e+01,-1.173056507349017920e+03
0.000000000000000000e+00,2.972270874146539654e+02,-1.159624782340958063e+03
0.000000000000000000e+00,1.254330302317856422e+03,-2.927476036104614820e-02
0.000000000000000000e+00,5.495149732083865501e+01,-9.045378870812518244e+02
0.000000000000000000e+00,7.793610990903896436e+02,-1.060112200471513233e+03
0.000000000000000000e+00,7.733505338995598777e+01,-1.539054293107533567e+03
0.000000000000000000e+00,3.955904514586065375e+02,1.447483797456462753e+03
0.000000000000000000e+00,3.786811521445991957e+02,-5.918012904428053389e+02
0.000000000000000000e+00,-5.116979117127710310e+02,-1.352583205276562694e+03
0.000000000000000000e+00,1.030269302430094285e+03,-1.133698570565527916e+03
0.000000000000000000e+00,-5.813999921408574210e+02,-6.090076171945938768e+02
0.000000000000000000e+00,-2.771488743059820763e+02,-2.244633546550476240e+03
0.000000000000000000e+00,-4.962278237235232723e+02,-1.299357209999731595e+03
0.000000000000000000e+00,7.239488539811793544e+02,-2.296721871944681368e+02
0.000000000000000000e+00,3.398022465574748026e+02,-3.860000609718471196e+02
0.000000000000000000e+00,6.808571800909354579e+02,-1.415142482050043327e+03
0.000000000000000000e+00,1.185652784093738319e+02,-9.493897510273968692e+02
0.000000000000000000e+00,3.392140677536252724e+02,-7.036457379364502458e+02
0.000000000000000000e+00,6.378389600014411371e+02,-1.083566818411944723e+03
0.000000000000000000e+00,2.225425908701829201e+02,-1.101035796010605736e+03
0.000000000000000000e+00,7.784541712117882071e+02,3.613950347190977368e+02
0.000000000000000000e+00,7.739506709152321946e+02,-1.668384399038437550e+03
0.000000000000000000e+00,4.121503594619875912e+02,-3.058553026673424938e+03
0.000000000000000000e+00,-1.027613677816192421e+02,-1.424560885331470445e+03
0.000000000000000000e+00,-3.494770747899552816e+02,-1.952342173356906869e+03
0.000000000000000000e+00,-2.058260924206510936e+02,-9.650137630043079753e+02
0.000000000000000000e+00,1.553801253769058235e+02,-1.705762352069190456e+03
0.000000000000000000e+00,-6.253296073680446625e+02,-1.173984421301466909e+02
0.000000000000000000e+00,3.974866325842879178e+02,-7.519573780701939540e+02
0.000000000000000000e+00,-4.551111984158574160e+02,-2.898380613539508204e+02
0.000000000000000000e+00,2.895915088599003298e+02,-6.585353268956002921e+02
0.000000000000000000e+00,-5.451454498270412614e+02,-1.085604741068646717e+03
0.000000000000000000e+00,2.735865379965551369e+02,-1.300980476024926475e+03
0.000000000000000000e+00,5.510480264678008098e+02,8.064125326011476318e+02
0.000000000000000000e+00,3.708916888573741630e+02,1.487011993613867844e+03
0.000000000000000000e+00,1.721737842523991731e+02,-8.871853403291559061e+02
0.000000000000000000e+00,7.807352850687370847e+02,-8.606171352834087429e+02
0.000000000000000000e+00,8.288475945306158792e+02,-1.272806798982137252e+03
0.000000000000000000e+00,6.584178175437824621e+02,-8.411028592025991202e+02
0.000000000000000000e+00,-3.356843637900740873e+02,-1.407337190136997378e+03
0.000000000000000000e+00,4.763408732208482661e+02,-1.037790168830995299e+02
0.000000000000000000e+00,6.962167251856726580e+00,-8.298168776624622751e+02
1.000000000000000000e+00,1.503835615468795368e+03,-2.672556529481601501e+03
1.000000000000000000e+00,4.774665267176374641e+02,-9.847655780829904870e+02
1.000000000000000000e+00,1.038444386937786931e+03,-3.142619865257932815e+03
1.000000000000000000e+00,9.641729840334694472e+02,-3.040995387744324489e+03
1.000000000000000000e+00,6.154981393353682506e+01,-2.344105284998321167e+03
1.000000000000000000e+00,2.111523517287724644e+03,-3.779994431034412173e+03
1.000000000000000000e+00,1.583634318058760527e+03,-2.648873048716785888e+03
1.000000000000000000e+00,1.947584309778179659e+03,-2.811075361194642028e+03
1.000000000000000000e+00,-2.984503934739332749e+02,9.639092617928902200e+02
1.000000000000000000e+00,-1.332541925811546434e+03,-1.034698950068960812e+03
1.000000000000000000e+00,3.297590498271352999e+01,5.751109219737040803e+02
1.000000000000000000e+00,4.638270348444665956e+02,1.228815844804753397e+03
1.000000000000000000e+00,1.007108805408119679e+03,-3.726949645565864557e+03
1.000000000000000000e+00,-1.456953048870502016e+03,-1.313246045970539171e+03
1.000000000000000000e+00,8.844343391617196630e+02,-3.233490946386519681e+03
1.000000000000000000e+00,-6.161730994573233033e+01,1.399143334368064643e+03
1.000000000000000000e+00,5.269176073920050385e+02,-1.348719110407902804e+02
1.000000000000000000e+00,2.749615681017360203e+02,9.058265490470658960e+02
1.000000000000000000e+00,-2.259334158326826696e+02,-9.747413989417718767e+02
1.000000000000000000e+00,-1.945106446605191650e+03,7.030539940849363347e+02
1.000000000000000000e+00,2.476902547237770023e+02,-1.247320491522259772e+03
1.000000000000000000e+00,6.413280269167223651e+02,4.984952268113177638e+02
1.000000000000000000e+00,3.422495194076794860e+02,1.879400776983964306e+03
1.000000000000000000e+00,-1.003156342302380722e+03,-1.377729456881896567e+03
1.000000000000000000e+00,-3.042434554983982480e+02,7.476012751964046856e+02
1.000000000000000000e+00,1.516377735094198897e+03,4.261613879949705392e+02
1.000000000000000000e+00,2.288401106004397207e+03,-3.189125091288924978e+03
1.000000000000000000e+00,-4.979922555495409711e+02,-1.706867763393064706e+03
1.000000000000000000e+00,-3.266961156940891442e+01,4.343234373878248107e+02
1.000000000000000000e+00,-1.382281896975019663e+03,5.090958006760263856e+02
1.000000000000000000e+00,-6.076099863671895491e+02,-1.239957861165687063e+03
1.000000000000000000e+00,1.014815979335606926e+02,1.633704427791302578e+03
1.000000000000000000e+00,-8.147149638764609563e+02,1.590339319424601285e+02
1.000000000000000000e+00,9.222266660986080922e+01,-1.091473271660449655e+03
1.000000000000000000e+00,7.539730591448548012e+02,7.830714470703228471e+02
1.000000000000000000e+00,1.238483540366545867e+03,-2.863429231432645793e+03
1.000000000000000000e+00,-1.882783867497040546e+02,1.276798091789940827e+03
1.000000000000000000e+00,-4.133804703908160718e+02,-1.808848157795285033e+03
1.000000000000000000e+00,-2.545460425331380065e+02,7.832451359739116015e+02
1.000000000000000000e+00,-2.595021790589203192e+01,8.147821445286834887e+02
1.000000000000000000e+00,-9.309947794106096808e+01,8.809495034644360203e+02
1.000000000000000000e+00,-1.231822590277337213e+02,-3.041106988151705082e+03
1.000000000000000000e+00,1.137190726117468103e+03,-3.228797290786940721e+03
1.000000000000000000e+00,2.563306601608126130e+03,-3.310079832165974949e+03
1.000000000000000000e+00,2.118468494588811154e+03,-3.496671111528307392e+03
1.000000000000000000e+00,2.389714400776042567e+03,-3.583636863677547353e+03
1.000000000000000000e+00,-3.100908080433167015e+03,-2.703219524082408498e+03
1.000000000000000000e+00,1.624250314680019301e+03,-3.123095409897174704e+03
1.000000000000000000e+00,2.070379819233679882e+03,-2.857639523935451507e+03
1.000000000000000000e+00,1.258734180625946010e+03,-2.434187430483815206e+03
1.000000000000000000e+00,7.999217033638404928e+02,-2.370623628591015404e+03
1.000000000000000000e+00,1.674919066966449464e+03,-2.959218877267856442e+03
1.000000000000000000e+00,8.057010676877658852e+02,-1.962349476331726009e+03
1.000000000000000000e+00,2.428147822515282769e+03,-2.535340664571446723e+03
1.000000000000000000e+00,-4.356277958374680566e+02,-2.542911078489285046e+03
1.000000000000000000e+00,1.986635365958168677e+03,-3.299393669191927984e+03
1.000000000000000000e+00,3.352085934697637413e+02,-2.690718477227489529e+03
1.000000000000000000e+00,5.394856195227421267e+02,-2.915969367158717432e+03
1.000000000000000000e+00,1.905660038042668020e+03,-3.531374245840557705e+03
1.000000000000000000e+00,2.791370205290704689e+03,-2.691138242475748029e+03
1.000000000000000000e+00,1.710973112132425285e+03,-3.169753762457859011e+03
1.000000000000000000e+00,2.194426598976631794e+03,-3.013431154028306992e+03
1.000000000000000000e+00,2.084178294423984426e+03,-3.162463153361292825e+03
1.000000000000000000e+00,1.707327527054371785e+03,-1.307484885449007606e+03
1.000000000000000000e+00,3.626373555063617005e+01,-9.773373949554843421e+02
1.000000000000000000e+00,-1.254969758336583823e+02,-8.596776765411678980e+02
1.000000000000000000e+00,3.448682271436663882e+02,8.973319397958698573e+02
